Image,x_center,y_center,width,height,Image_angle,x_position,y_position,angle
0,49.5,14.5,99,29,179.34902366371045,-1.1604110717773437,1.6231021463871,0.0
1,49.5,14.5,99,29,178.4100849400678,-1.1604110717773437,1.6231021463871,5.0
2,49.5,15.0,99,30,177.2063780178978,-1.1604110717773437,1.6231021463871,10.0
3,50.0,15.0,100,30,176.28429601441377,-1.1604110717773437,1.6231021463871,15.0
4,50.0,15.0,100,30,175.31674502149394,-1.1604110717773437,1.6231021463871,20.0
5,50.0,15.0,100,30,175.0432849324389,-1.1604110717773437,1.6231021463871,25.0
6,49.5,15.5,99,31,173.39603576861043,-1.1604110717773437,1.6231021463871,30.0
7,49.5,15.5,99,31,172.6282185817646,-1.1604110717773437,1.6231021463871,35.0
8,49.0,15.5,98,31,171.4071469278876,-1.1604110717773437,1.6231021463871,40.0
9,45.0,15.5,90,31,170.68606841177245,-1.1604110717773437,1.6231021463871,45.0
10,41.0,16.0,82,32,169.52867472500589,-1.1604110717773437,1.6231021463871,50.0
11,38.0,16.0,76,32,168.77153050002892,-1.1604110717773437,1.6231021463871,55.0
12,35.0,16.5,70,33,167.5598165704091,-1.1604110717773437,1.6231021463871,60.0
13,32.0,17.0,64,34,166.17701231813066,-1.1604110717773437,1.6231021463871,65.0
14,30.0,17.5,60,35,165.0231959160992,-1.1604110717773437,1.6231021463871,70.0
15,27.5,18.0,55,36,163.52539244170475,-1.1604110717773437,1.6231021463871,75.0
16,26.0,19.0,52,38,162.01974140167755,-1.1604110717773437,1.6231021463871,80.0
17,23.5,20.5,47,41,159.49545654921485,-1.1604110717773437,1.6231021463871,85.0
18,22.0,22.5,44,45,112.17072841121819,-1.1604110717773437,1.6231021463871,90.0
19,20.0,24.5,40,49,109.54692944311472,-1.1604110717773437,1.6231021463871,95.0
20,18.5,29.5,37,59,105.91372328833654,-1.1604110717773437,1.6231021463871,100.0
21,17.5,31.5,35,63,101.19006752597977,-1.1604110717773437,1.6231021463871,105.0
22,16.5,32.0,33,64,96.20370926370038,-1.1604110717773437,1.6231021463871,110.0
23,17.0,31.5,34,63,89.20442986440275,-1.1604110717773437,1.6231021463871,115.0
24,21.0,31.0,42,62,83.73559614542432,-1.1604110717773437,1.6231021463871,120.0
25,25.0,30.0,50,60,45.0,-1.1604110717773437,1.6231021463871,125.0
26,28.5,29.0,57,58,46.24477646099956,-1.1604110717773437,1.6231021463871,130.0
27,32.0,27.5,64,55,44.37731786661584,-1.1604110717773437,1.6231021463871,135.0
28,35.0,26.5,70,53,45.0,-1.1604110717773437,1.6231021463871,140.0
29,38.0,25.0,76,50,45.0,-1.1604110717773437,1.6231021463871,145.0
30,40.5,23.5,81,47,9.426579382209525,-1.1604110717773437,1.6231021463871,150.0
31,42.5,22.0,85,44,6.01529804826896,-1.1604110717773437,1.6231021463871,155.0
32,44.5,20.5,89,41,4.44032957526008,-1.1604110717773437,1.6231021463871,160.0
33,46.0,19.0,92,38,3.214373874414946,-1.1604110717773437,1.6231021463871,165.0
34,47.5,17.0,95,34,1.7540416879784289,-1.1604110717773437,1.6231021463871,170.0
35,48.5,15.5,97,31,0.6985905136482415,-1.1604110717773437,1.6231021463871,175.0
36,54.0,8.5,108,17,179.40940554333667,-1.1604110717773437,1.6731021463870999,0.0
37,54.5,9.0,109,18,177.80064732250224,-1.1604110717773437,1.6731021463870999,5.0
38,54.5,9.0,109,18,177.03770900900872,-1.1604110717773437,1.6731021463870999,10.0
39,55.0,9.5,110,19,176.2595569102382,-1.1604110717773437,1.6731021463870999,15.0
40,54.0,9.5,108,19,175.22543303563202,-1.1604110717773437,1.6731021463870999,20.0
41,47.5,10.0,95,20,174.28644920302742,-1.1604110717773437,1.6731021463870999,25.0
42,42.5,10.5,85,21,173.30375112312447,-1.1604110717773437,1.6731021463870999,30.0
43,38.5,10.5,77,21,172.6282185817646,-1.1604110717773437,1.6731021463870999,35.0
44,35.5,11.0,71,22,171.65037788300322,-1.1604110717773437,1.6731021463870999,40.0
45,33.0,11.5,66,23,170.65050859790944,-1.1604110717773437,1.6731021463870999,45.0
46,31.0,12.0,62,24,169.67054496834623,-1.1604110717773437,1.6731021463870999,50.0
47,29.0,12.5,58,25,168.58317291104123,-1.1604110717773437,1.6731021463870999,55.0
48,27.5,13.0,55,26,167.57880544727243,-1.1604110717773437,1.6731021463870999,60.0
49,27.0,14.0,54,28,166.5020808029567,-1.1604110717773437,1.6731021463870999,65.0
50,25.0,14.5,50,29,166.39194422134625,-1.1604110717773437,1.6731021463870999,70.0
51,24.0,16.0,48,32,163.15496623701011,-1.1604110717773437,1.6731021463870999,75.0
52,23.5,17.5,47,35,161.76538280497402,-1.1604110717773437,1.6731021463870999,80.0
53,22.5,19.0,45,38,45.0,-1.1604110717773437,1.6731021463870999,85.0
54,22.0,22.5,44,45,112.17072841121819,-1.1604110717773437,1.6731021463870999,90.0
55,21.0,25.0,42,50,108.43494882292202,-1.1604110717773437,1.6731021463870999,95.0
56,21.0,25.5,42,51,105.38135976711948,-1.1604110717773437,1.6731021463870999,100.0
57,21.0,25.5,42,51,101.59929525682406,-1.1604110717773437,1.6731021463870999,105.0
58,21.5,25.0,43,50,45.0,-1.1604110717773437,1.6731021463870999,110.0
59,23.5,24.5,47,49,44.39056238243438,-1.1604110717773437,1.6731021463870999,115.0
60,27.5,24.0,55,48,45.0,-1.1604110717773437,1.6731021463870999,120.0
61,31.0,23.0,62,46,45.0,-1.1604110717773437,1.6731021463870999,125.0
62,34.5,22.0,69,44,45.0,-1.1604110717773437,1.6731021463870999,130.0
63,38.0,20.5,76,41,19.329904127044983,-1.1604110717773437,1.6731021463870999,135.0
64,41.0,19.5,82,39,15.631865847188692,-1.1604110717773437,1.6731021463870999,140.0
65,44.0,18.0,88,36,11.814688865328435,-1.1604110717773437,1.6731021463870999,145.0
66,46.5,17.5,93,35,8.939348297920674,-1.1604110717773437,1.6731021463870999,150.0
67,48.5,15.5,97,31,6.642433242451034,-1.1604110717773437,1.6731021463870999,155.0
68,50.0,14.0,100,28,4.791472361766296,-1.1604110717773437,1.6731021463870999,160.0
69,51.5,12.0,103,24,2.98716164324037,-1.1604110717773437,1.6731021463870999,165.0
70,52.5,10.5,105,21,1.589915059932082,-1.1604110717773437,1.6731021463870999,170.0
71,53.5,9.0,107,18,0.8732794831751107,-1.1604110717773437,1.6731021463870999,175.0
72,51.5,28.0,103,56,179.3704773964123,-1.1104110717773437,1.5231021463871,0.0
73,52.0,28.0,104,56,178.355378660754,-1.1104110717773437,1.5231021463871,5.0
74,52.5,28.0,105,56,177.265452514944,-1.1104110717773437,1.5231021463871,10.0
75,52.5,28.0,105,56,175.58512766604548,-1.1104110717773437,1.5231021463871,15.0
76,52.5,28.5,105,57,174.55723647267064,-1.1104110717773437,1.5231021463871,20.0
77,52.0,28.5,104,57,174.23813914805135,-1.1104110717773437,1.5231021463871,25.0
78,52.0,28.5,104,57,173.17854261200495,-1.1104110717773437,1.5231021463871,30.0
79,52.0,29.0,104,58,172.3959804046823,-1.1104110717773437,1.5231021463871,35.0
80,52.0,29.0,104,58,171.46857141326927,-1.1104110717773437,1.5231021463871,40.0
81,51.5,29.0,103,58,170.90631199610056,-1.1104110717773437,1.5231021463871,45.0
82,51.0,29.5,102,59,169.5006404828065,-1.1104110717773437,1.5231021463871,50.0
83,50.0,30.0,100,60,168.62332312653461,-1.1104110717773437,1.5231021463871,55.0
84,48.5,30.0,97,60,167.47451109177854,-1.1104110717773437,1.5231021463871,60.0
85,47.0,30.5,94,61,166.20135206567812,-1.1104110717773437,1.5231021463871,65.0
86,45.0,31.0,90,62,164.87178141823534,-1.1104110717773437,1.5231021463871,70.0
87,43.0,32.0,86,64,163.3229871242416,-1.1104110717773437,1.5231021463871,75.0
88,40.0,33.5,80,67,161.38258300921268,-1.1104110717773437,1.5231021463871,80.0
89,37.5,34.5,75,69,159.6269182180596,-1.1104110717773437,1.5231021463871,85.0
90,34.5,37.0,69,74,111.48454288157347,-1.1104110717773437,1.5231021463871,90.0
91,30.5,40.0,61,80,108.6082202367673,-1.1104110717773437,1.5231021463871,95.0
92,27.0,45.0,54,90,105.38701805062408,-1.1104110717773437,1.5231021463871,100.0
93,23.5,46.5,47,93,100.44290073034654,-1.1104110717773437,1.5231021463871,105.0
94,20.5,46.5,41,93,95.35656151139551,-1.1104110717773437,1.5231021463871,110.0
95,18.0,46.5,36,93,89.27346441326915,-1.1104110717773437,1.5231021463871,115.0
96,22.5,45.5,45,91,83.30375112312447,-1.1104110717773437,1.5231021463871,120.0
97,26.5,44.5,53,89,76.20135206567818,-1.1104110717773437,1.5231021463871,125.0
98,30.5,43.5,61,87,70.09721445386742,-1.1104110717773437,1.5231021463871,130.0
99,34.0,42.0,68,84,65.71183281250137,-1.1104110717773437,1.5231021463871,135.0
100,37.0,41.0,74,82,61.28702856728626,-1.1104110717773437,1.5231021463871,140.0
101,40.0,39.5,80,79,145.79068732858065,-1.1104110717773437,1.5231021463871,145.0
102,43.0,37.5,86,75,45.0,-1.1104110717773437,1.5231021463871,150.0
103,45.0,36.0,90,72,45.0,-1.1104110717773437,1.5231021463871,155.0
104,47.0,34.5,94,69,4.932903471542204,-1.1104110717773437,1.5231021463871,160.0
105,48.5,32.5,97,65,3.4213867063153884,-1.1104110717773437,1.5231021463871,165.0
106,50.0,30.5,100,61,1.7236934259326517,-1.1104110717773437,1.5231021463871,170.0
107,51.0,29.0,102,58,0.67394364009931,-1.1104110717773437,1.5231021463871,175.0
108,57.0,21.0,114,42,179.44380019185098,-1.1104110717773437,1.5731021463871,0.0
109,57.5,21.5,115,43,178.34906716278243,-1.1104110717773437,1.5731021463871,5.0
110,58.0,22.0,116,44,177.17278958867968,-1.1104110717773437,1.5731021463871,10.0
111,58.0,22.0,116,44,176.3404903122048,-1.1104110717773437,1.5731021463871,15.0
112,58.5,22.5,117,45,175.22773721722092,-1.1104110717773437,1.5731021463871,20.0
113,58.0,23.0,116,46,174.24759233687058,-1.1104110717773437,1.5731021463871,25.0
114,57.5,23.5,115,47,173.52120995295343,-1.1104110717773437,1.5731021463871,30.0
115,57.5,23.5,115,47,172.67905772938332,-1.1104110717773437,1.5731021463871,35.0
116,57.5,24.0,115,48,171.6271247308399,-1.1104110717773437,1.5731021463871,40.0
117,57.5,24.5,115,49,170.69996705698344,-1.1104110717773437,1.5731021463871,45.0
118,56.5,25.5,113,51,169.42695291029617,-1.1104110717773437,1.5731021463871,50.0
119,55.5,25.5,111,51,168.71021371798685,-1.1104110717773437,1.5731021463871,55.0
120,53.5,26.5,107,53,166.9344997275307,-1.1104110717773437,1.5731021463871,60.0
121,51.0,27.0,102,54,166.1558230544233,-1.1104110717773437,1.5731021463871,65.0
122,47.0,28.0,94,56,164.7000106533955,-1.1104110717773437,1.5731021463871,70.0
123,44.0,30.0,88,60,162.92820667403112,-1.1104110717773437,1.5731021463871,75.0
124,40.5,31.5,81,63,161.33723975844697,-1.1104110717773437,1.5731021463871,80.0
125,38.0,33.5,76,67,159.3261113901532,-1.1104110717773437,1.5731021463871,85.0
126,34.5,37.0,69,74,111.48454288157347,-1.1104110717773437,1.5731021463871,90.0
127,32.0,39.0,64,78,108.5012632640981,-1.1104110717773437,1.5731021463871,95.0
128,29.5,40.0,59,80,104.87244064847113,-1.1104110717773437,1.5731021463871,100.0
129,27.5,40.0,55,80,101.0435858016142,-1.1104110717773437,1.5731021463871,105.0
130,25.5,39.5,51,79,95.47703132169914,-1.1104110717773437,1.5731021463871,110.0
131,25.0,38.5,50,77,88.87712871705253,-1.1104110717773437,1.5731021463871,115.0
132,29.0,38.0,58,76,45.0,-1.1104110717773437,1.5731021463871,120.0
133,33.0,37.0,66,74,46.21832412340507,-1.1104110717773437,1.5731021463871,125.0
134,36.5,36.0,73,72,45.0,-1.1104110717773437,1.5731021463871,130.0
135,40.0,34.5,80,69,45.0,-1.1104110717773437,1.5731021463871,135.0
136,43.5,33.0,87,66,45.0,-1.1104110717773437,1.5731021463871,140.0
137,46.0,32.0,92,64,11.271530500028916,-1.1104110717773437,1.5731021463871,145.0
138,49.5,30.5,99,61,9.217474411461012,-1.1104110717773437,1.5731021463871,150.0
139,51.0,28.5,102,57,5.72466899425001,-1.1104110717773437,1.5731021463871,155.0
140,53.0,27.0,106,54,4.731161104012813,-1.1104110717773437,1.5731021463871,160.0
141,54.5,25.5,109,51,3.278473249081685,-1.1104110717773437,1.5731021463871,165.0
142,55.5,23.5,111,47,1.7881671874986296,-1.1104110717773437,1.5731021463871,170.0
143,56.5,22.0,113,44,0.5905944566633252,-1.1104110717773437,1.5731021463871,175.0
144,62.5,14.5,125,29,179.49301063860736,-1.1104110717773437,1.6231021463871,0.0
145,63.0,15.5,126,31,178.07698495497635,-1.1104110717773437,1.6231021463871,5.0
146,63.0,16.0,126,32,177.14470343125015,-1.1104110717773437,1.6231021463871,10.0
147,63.0,16.5,126,33,176.4686986647921,-1.1104110717773437,1.6231021463871,15.0
148,63.5,17.0,127,34,175.9892046357799,-1.1104110717773437,1.6231021463871,20.0
149,63.0,17.5,126,35,175.16694730012284,-1.1104110717773437,1.6231021463871,25.0
150,63.0,18.0,126,36,173.03582903042314,-1.1104110717773437,1.6231021463871,30.0
151,63.0,18.5,126,37,172.69936385708303,-1.1104110717773437,1.6231021463871,35.0
152,62.5,19.5,125,39,171.48111610218717,-1.1104110717773437,1.6231021463871,40.0
153,58.0,20.0,116,40,170.63331917854157,-1.1104110717773437,1.6231021463871,45.0
154,53.5,21.0,107,42,169.42695291029617,-1.1104110717773437,1.6231021463871,50.0
155,50.0,22.0,100,44,168.50564159895964,-1.1104110717773437,1.6231021463871,55.0
156,48.0,23.0,96,46,167.57420707014387,-1.1104110717773437,1.6231021463871,60.0
157,45.0,24.0,90,48,166.08095940143266,-1.1104110717773437,1.6231021463871,65.0
158,43.0,25.5,86,51,164.76722754027003,-1.1104110717773437,1.6231021463871,70.0
159,40.0,27.0,80,54,163.07144492916962,-1.1104110717773437,1.6231021463871,75.0
160,38.0,29.5,76,59,161.14201182720842,-1.1104110717773437,1.6231021463871,80.0
161,36.5,32.0,73,64,159.40703741714515,-1.1104110717773437,1.6231021463871,85.0
162,34.5,33.0,69,66,156.2332205558027,-1.1104110717773437,1.6231021463871,90.0
163,33.5,33.0,67,66,154.09934258800922,-1.1104110717773437,1.6231021463871,95.0
164,32.0,33.0,64,66,104.87244064847113,-1.1104110717773437,1.6231021463871,100.0
165,31.0,32.5,62,65,45.0,-1.1104110717773437,1.6231021463871,105.0
166,30.5,32.0,61,64,45.0,-1.1104110717773437,1.6231021463871,110.0
167,31.5,31.0,63,62,45.0,-1.1104110717773437,1.6231021463871,115.0
168,35.5,30.5,71,61,45.0,-1.1104110717773437,1.6231021463871,120.0
169,39.0,29.5,78,59,45.0,-1.1104110717773437,1.6231021463871,125.0
170,43.0,28.5,86,57,24.49545654921485,-1.1104110717773437,1.6231021463871,130.0
171,46.0,27.5,92,55,18.328054207983428,-1.1104110717773437,1.6231021463871,135.0
172,49.5,26.5,99,53,14.99081968442465,-1.1104110717773437,1.6231021463871,140.0
173,52.0,24.5,104,49,11.981244487289132,-1.1104110717773437,1.6231021463871,145.0
174,54.5,23.0,109,46,9.338350866095084,-1.1104110717773437,1.6231021463871,150.0
175,56.5,21.5,113,43,7.190697295545306,-1.1104110717773437,1.6231021463871,155.0
176,58.5,20.0,117,40,5.122043723229353,-1.1104110717773437,1.6231021463871,160.0
177,60.0,18.5,120,37,3.6515276857730896,-1.1104110717773437,1.6231021463871,165.0
178,61.0,17.0,122,34,1.9253194119553427,-1.1104110717773437,1.6231021463871,170.0
179,62.0,15.0,124,30,0.5161223457828328,-1.1104110717773437,1.6231021463871,175.0
180,67.5,8.5,135,17,179.31258260971526,-1.1104110717773437,1.6731021463870999,0.0
181,67.5,9.5,135,19,178.2118328125013,-1.1104110717773437,1.6731021463870999,5.0
182,68.0,10.0,136,20,177.32208747857237,-1.1104110717773437,1.6731021463870999,10.0
183,68.5,11.0,137,22,175.61109130693143,-1.1104110717773437,1.6731021463870999,15.0
184,66.5,11.5,133,23,175.2688388959872,-1.1104110717773437,1.6731021463870999,20.0
185,59.0,12.5,118,25,174.2039122948545,-1.1104110717773437,1.6731021463870999,25.0
186,54.5,13.0,109,26,173.4833218370431,-1.1104110717773437,1.6731021463870999,30.0
187,51.0,14.0,102,28,172.51664021799758,-1.1104110717773437,1.6731021463870999,35.0
188,48.0,15.0,96,30,171.5122502660351,-1.1104110717773437,1.6731021463870999,40.0
189,45.0,15.5,90,31,170.68606841177245,-1.1104110717773437,1.6731021463870999,45.0
190,43.5,16.5,87,33,169.795058583098,-1.1104110717773437,1.6731021463870999,50.0
191,42.0,18.0,84,36,168.56774593905016,-1.1104110717773437,1.6731021463870999,55.0
192,40.0,19.0,80,38,167.4518747686539,-1.1104110717773437,1.6731021463870999,60.0
193,39.0,21.0,78,42,165.98307405426806,-1.1104110717773437,1.6731021463870999,65.0
194,38.0,22.5,76,45,164.80063614291697,-1.1104110717773437,1.6731021463870999,70.0
195,37.0,24.5,74,49,163.33685515644237,-1.1104110717773437,1.6731021463870999,75.0
196,36.5,26.5,73,53,161.0625081744509,-1.1104110717773437,1.6731021463870999,80.0
197,35.5,26.0,71,52,159.18323033171487,-1.1104110717773437,1.6731021463870999,85.0
198,34.5,26.5,69,53,156.5761948670027,-1.1104110717773437,1.6731021463870999,90.0
199,34.5,26.5,69,53,153.72528911586835,-1.1104110717773437,1.6731021463870999,95.0
200,34.0,25.5,68,51,45.0,-1.1104110717773437,1.6731021463870999,100.0
201,34.5,25.5,69,51,45.0,-1.1104110717773437,1.6731021463870999,105.0
202,35.5,25.0,71,50,45.0,-1.1104110717773437,1.6731021463870999,110.0
203,37.5,24.0,75,48,135.0,-1.1104110717773437,1.6731021463870999,115.0
204,41.5,23.5,83,47,16.845033762989942,-1.1104110717773437,1.6731021463870999,120.0
205,47.5,22.5,85,45,178.89870091911712,-1.1104110717773437,1.6731021463870999,125.0
206,51.5,21.5,91,43,25.194655879986726,-1.1104110717773437,1.6731021463870999,130.0
207,55.0,20.5,98,41,19.684658621182393,-1.1104110717773437,1.6731021463870999,135.0
208,57.0,19.0,106,38,14.824931753787723,-1.1104110717773437,1.6731021463870999,140.0
209,57.5,18.0,115,36,11.684556581741049,-1.1104110717773437,1.6731021463870999,145.0
210,60.0,16.5,120,33,8.90944445726143,-1.1104110717773437,1.6731021463870999,150.0
211,62.0,15.0,124,30,6.724307525843187,-1.1104110717773437,1.6731021463870999,155.0
212,63.5,13.5,127,27,4.824022658049103,-1.1104110717773437,1.6731021463870999,160.0
213,65.0,12.0,130,24,3.0850875475148314,-1.1104110717773437,1.6731021463870999,165.0
214,66.0,10.5,132,21,1.7266581252654305,-1.1104110717773437,1.6731021463870999,170.0
215,67.0,8.5,134,17,0.47347572338685495,-1.1104110717773437,1.6731021463870999,175.0
216,54.5,45.5,109,79,178.4249360998345,-1.0604110717773436,1.4231021463870999,0.0
217,55.0,44.0,110,82,176.3998255759733,-1.0604110717773436,1.4231021463870999,5.0
218,55.0,42.5,110,85,174.4166656884546,-1.0604110717773436,1.4231021463870999,10.0
219,55.0,43.0,110,86,174.30897602274013,-1.0604110717773436,1.4231021463870999,15.0
220,55.0,43.0,110,86,172.93974698150868,-1.0604110717773436,1.4231021463870999,20.0
221,55.0,43.0,110,86,128.79127710496186,-1.0604110717773436,1.4231021463870999,25.0
222,55.0,43.5,110,87,171.4495152768535,-1.0604110717773436,1.4231021463870999,30.0
223,55.0,43.5,110,87,170.79675702788325,-1.0604110717773436,1.4231021463870999,35.0
224,54.5,43.5,109,87,170.02297749544834,-1.0604110717773436,1.4231021463870999,40.0
225,54.5,44.0,109,88,169.32849925004507,-1.0604110717773436,1.4231021463870999,45.0
226,53.5,44.5,107,89,123.72846949997108,-1.0604110717773436,1.4231021463870999,50.0
227,52.5,45.0,105,90,167.88612734102293,-1.0604110717773436,1.4231021463870999,55.0
228,51.0,45.0,102,90,121.95228792130581,-1.0604110717773436,1.4231021463870999,60.0
229,49.5,45.5,99,91,120.44763418629066,-1.0604110717773436,1.4231021463870999,65.0
230,47.5,46.5,95,93,118.80430339668311,-1.0604110717773436,1.4231021463870999,70.0
231,45.5,47.0,91,94,117.41678198210354,-1.0604110717773436,1.4231021463870999,75.0
232,43.0,48.5,86,97,115.93740901435211,-1.0604110717773436,1.4231021463870999,80.0
233,40.0,50.5,80,101,113.67664843305414,-1.0604110717773436,1.4231021463870999,85.0
234,37.0,53.0,74,106,111.13684450304686,-1.0604110717773436,1.4231021463870999,90.0
235,33.5,56.5,67,113,108.43494882292202,-1.0604110717773436,1.4231021463870999,95.0
236,30.0,61.5,60,123,105.3093027044547,-1.0604110717773436,1.4231021463870999,100.0
237,26.5,62.5,53,125,100.95158904091954,-1.0604110717773436,1.4231021463870999,105.0
238,22.5,63.0,45,126,95.33017414726766,-1.0604110717773436,1.4231021463870999,110.0
239,19.5,62.5,39,125,89.34154379710344,-1.0604110717773436,1.4231021463870999,115.0
240,24.0,61.5,48,123,82.2035945303669,-1.0604110717773436,1.4231021463870999,120.0
241,28.0,60.5,56,121,76.42515915110846,-1.0604110717773436,1.4231021463870999,125.0
242,32.0,59.5,64,119,71.19302157563368,-1.0604110717773436,1.4231021463870999,130.0
243,36.0,60.5,72,113,64.61283704866833,-1.0604110717773436,1.4231021463870999,135.0
244,39.5,61.0,79,104,60.12821858176471,-1.0604110717773436,1.4231021463870999,140.0
245,42.5,60.0,85,100,57.97114774493582,-1.0604110717773436,1.4231021463870999,145.0
246,45.5,58.5,91,95,53.952223753124144,-1.0604110717773436,1.4231021463870999,150.0
247,47.5,57.0,95,92,51.349792244798664,-1.0604110717773436,1.4231021463870999,155.0
248,49.5,54.5,99,89,49.59441803867935,-1.0604110717773436,1.4231021463870999,160.0
